1 2 0 0
1 3 0 0
1 4 0 0
1 5 0 0
1 6 0 0
1 7 0 0
1 8 0 0
1 9 6 5 10 11 12 13 14 15
1 10 6 5 9 11 12 13 14 15
1 11 6 5 9 10 12 13 14 15
1 12 6 5 9 10 11 13 14 15
1 13 6 5 9 10 11 12 14 15
1 14 6 5 9 10 11 12 13 15
1 15 0 0
1 16 6 5 17 18 19 20 21 22
1 17 6 5 16 18 19 20 21 22
1 18 6 5 16 17 19 20 21 22
1 19 6 5 16 17 18 20 21 22
1 20 6 5 16 17 18 19 21 22
1 21 6 5 16 17 18 19 20 22
1 22 0 0
1 23 6 5 24 25 26 27 28 29
1 24 6 5 23 25 26 27 28 29
1 25 6 5 23 24 26 27 28 29
1 26 6 5 23 24 25 27 28 29
1 27 6 5 23 24 25 26 28 29
1 28 6 5 23 24 25 26 27 29
1 29 0 0
1 30 6 5 31 32 33 34 35 36
1 31 6 5 30 32 33 34 35 36
1 32 6 5 30 31 33 34 35 36
1 33 6 5 30 31 32 34 35 36
1 34 6 5 30 31 32 33 35 36
1 35 6 5 30 31 32 33 34 36
1 36 0 0
1 37 6 5 38 39 40 41 42 43
1 38 6 5 37 39 40 41 42 43
1 39 6 5 37 38 40 41 42 43
1 40 6 5 37 38 39 41 42 43
1 41 6 5 37 38 39 40 42 43
1 42 6 5 37 38 39 40 41 43
1 43 0 0
1 44 6 5 45 46 47 48 49 50
1 45 6 5 44 46 47 48 49 50
1 46 6 5 44 45 47 48 49 50
1 47 6 5 44 45 46 48 49 50
1 48 6 5 44 45 46 47 49 50
1 49 6 5 44 45 46 47 48 50
1 50 0 0
1 1 2 0 49 42
1 1 2 0 49 35
1 1 2 0 49 28
1 1 2 0 49 21
1 1 2 0 49 14
1 1 2 0 48 41
1 1 2 0 48 34
1 1 2 0 48 27
1 1 2 0 48 20
1 1 2 0 48 13
1 1 2 0 47 40
1 1 2 0 47 33
1 1 2 0 47 26
1 1 2 0 47 19
1 1 2 0 47 12
1 1 2 0 46 39
1 1 2 0 46 32
1 1 2 0 46 25
1 1 2 0 46 18
1 1 2 0 46 11
1 1 2 0 45 38
1 1 2 0 45 31
1 1 2 0 45 24
1 1 2 0 45 17
1 1 2 0 45 10
1 1 2 0 44 37
1 1 2 0 44 30
1 1 2 0 44 23
1 1 2 0 44 16
1 1 2 0 44 9
1 1 2 0 42 49
1 1 2 0 42 35
1 1 2 0 42 28
1 1 2 0 42 21
1 1 2 0 42 14
1 1 2 0 41 48
1 1 2 0 41 34
1 1 2 0 41 27
1 1 2 0 41 20
1 1 2 0 41 13
1 1 2 0 40 47
1 1 2 0 40 33
1 1 2 0 40 26
1 1 2 0 40 19
1 1 2 0 40 12
1 1 2 0 39 46
1 1 2 0 39 32
1 1 2 0 39 25
1 1 2 0 39 18
1 1 2 0 39 11
1 1 2 0 38 45
1 1 2 0 38 31
1 1 2 0 38 24
1 1 2 0 38 17
1 1 2 0 38 10
1 1 2 0 37 44
1 1 2 0 37 30
1 1 2 0 37 23
1 1 2 0 37 16
1 1 2 0 37 9
1 1 2 0 35 49
1 1 2 0 35 42
1 1 2 0 35 28
1 1 2 0 35 21
1 1 2 0 35 14
1 1 2 0 34 48
1 1 2 0 34 41
1 1 2 0 34 27
1 1 2 0 34 20
1 1 2 0 34 13
1 1 2 0 33 47
1 1 2 0 33 40
1 1 2 0 33 26
1 1 2 0 33 19
1 1 2 0 33 12
1 1 2 0 32 46
1 1 2 0 32 39
1 1 2 0 32 25
1 1 2 0 32 18
1 1 2 0 32 11
1 1 2 0 31 45
1 1 2 0 31 38
1 1 2 0 31 24
1 1 2 0 31 17
1 1 2 0 31 10
1 1 2 0 30 44
1 1 2 0 30 37
1 1 2 0 30 23
1 1 2 0 30 16
1 1 2 0 30 9
1 1 2 0 28 49
1 1 2 0 28 42
1 1 2 0 28 35
1 1 2 0 28 21
1 1 2 0 28 14
1 1 2 0 27 48
1 1 2 0 27 41
1 1 2 0 27 34
1 1 2 0 27 20
1 1 2 0 27 13
1 1 2 0 26 47
1 1 2 0 26 40
1 1 2 0 26 33
1 1 2 0 26 19
1 1 2 0 26 12
1 1 2 0 25 46
1 1 2 0 25 39
1 1 2 0 25 32
1 1 2 0 25 18
1 1 2 0 25 11
1 1 2 0 24 45
1 1 2 0 24 38
1 1 2 0 24 31
1 1 2 0 24 17
1 1 2 0 24 10
1 1 2 0 23 44
1 1 2 0 23 37
1 1 2 0 23 30
1 1 2 0 23 16
1 1 2 0 23 9
1 1 2 0 21 49
1 1 2 0 21 42
1 1 2 0 21 35
1 1 2 0 21 28
1 1 2 0 21 14
1 1 2 0 20 48
1 1 2 0 20 41
1 1 2 0 20 34
1 1 2 0 20 27
1 1 2 0 20 13
1 1 2 0 19 47
1 1 2 0 19 40
1 1 2 0 19 33
1 1 2 0 19 26
1 1 2 0 19 12
1 1 2 0 18 46
1 1 2 0 18 39
1 1 2 0 18 32
1 1 2 0 18 25
1 1 2 0 18 11
1 1 2 0 17 45
1 1 2 0 17 38
1 1 2 0 17 31
1 1 2 0 17 24
1 1 2 0 17 10
1 1 2 0 16 44
1 1 2 0 16 37
1 1 2 0 16 30
1 1 2 0 16 23
1 1 2 0 16 9
1 1 2 0 14 49
1 1 2 0 14 42
1 1 2 0 14 35
1 1 2 0 14 28
1 1 2 0 14 21
1 1 2 0 13 48
1 1 2 0 13 41
1 1 2 0 13 34
1 1 2 0 13 27
1 1 2 0 13 20
1 1 2 0 12 47
1 1 2 0 12 40
1 1 2 0 12 33
1 1 2 0 12 26
1 1 2 0 12 19
1 1 2 0 11 46
1 1 2 0 11 39
1 1 2 0 11 32
1 1 2 0 11 25
1 1 2 0 11 18
1 1 2 0 10 45
1 1 2 0 10 38
1 1 2 0 10 31
1 1 2 0 10 24
1 1 2 0 10 17
1 1 2 0 9 44
1 1 2 0 9 37
1 1 2 0 9 30
1 1 2 0 9 23
1 1 2 0 9 16
1 1 2 0 48 42
1 1 2 0 47 41
1 1 2 0 47 35
1 1 2 0 46 40
1 1 2 0 46 34
1 1 2 0 46 28
1 1 2 0 45 39
1 1 2 0 45 33
1 1 2 0 45 27
1 1 2 0 45 21
1 1 2 0 44 38
1 1 2 0 44 32
1 1 2 0 44 26
1 1 2 0 44 20
1 1 2 0 44 14
1 1 2 0 41 35
1 1 2 0 40 34
1 1 2 0 40 28
1 1 2 0 39 33
1 1 2 0 39 27
1 1 2 0 39 21
1 1 2 0 38 32
1 1 2 0 38 26
1 1 2 0 38 20
1 1 2 0 38 14
1 1 2 0 37 31
1 1 2 0 37 25
1 1 2 0 37 19
1 1 2 0 37 13
1 1 2 0 34 28
1 1 2 0 33 27
1 1 2 0 33 21
1 1 2 0 32 26
1 1 2 0 32 20
1 1 2 0 32 14
1 1 2 0 31 25
1 1 2 0 31 19
1 1 2 0 31 13
1 1 2 0 30 24
1 1 2 0 30 18
1 1 2 0 30 12
1 1 2 0 27 21
1 1 2 0 26 20
1 1 2 0 26 14
1 1 2 0 25 19
1 1 2 0 25 13
1 1 2 0 24 18
1 1 2 0 24 12
1 1 2 0 23 17
1 1 2 0 23 11
1 1 2 0 20 14
1 1 2 0 19 13
1 1 2 0 18 12
1 1 2 0 17 11
1 1 2 0 16 10
1 1 2 0 49 41
1 1 2 0 49 33
1 1 2 0 49 25
1 1 2 0 49 17
1 1 2 0 49 9
1 1 2 0 48 40
1 1 2 0 48 32
1 1 2 0 48 24
1 1 2 0 48 16
1 1 2 0 47 39
1 1 2 0 47 31
1 1 2 0 47 23
1 1 2 0 46 38
1 1 2 0 46 30
1 1 2 0 45 37
1 1 2 0 42 34
1 1 2 0 42 26
1 1 2 0 42 18
1 1 2 0 42 10
1 1 2 0 41 33
1 1 2 0 41 25
1 1 2 0 41 17
1 1 2 0 41 9
1 1 2 0 40 32
1 1 2 0 40 24
1 1 2 0 40 16
1 1 2 0 39 31
1 1 2 0 39 23
1 1 2 0 38 30
1 1 2 0 35 27
1 1 2 0 35 19
1 1 2 0 35 11
1 1 2 0 34 26
1 1 2 0 34 18
1 1 2 0 34 10
1 1 2 0 33 25
1 1 2 0 33 17
1 1 2 0 33 9
1 1 2 0 32 24
1 1 2 0 32 16
1 1 2 0 31 23
1 1 2 0 28 20
1 1 2 0 28 12
1 1 2 0 27 19
1 1 2 0 27 11
1 1 2 0 26 18
1 1 2 0 26 10
1 1 2 0 25 17
1 1 2 0 25 9
1 1 2 0 24 16
1 1 2 0 21 13
1 1 2 0 20 12
1 1 2 0 19 11
1 1 2 0 18 10
1 1 2 0 17 9
0
9 q(5,1)
10 q(5,2)
11 q(5,3)
12 q(5,4)
13 q(5,5)
14 q(5,6)
16 q(4,1)
17 q(4,2)
18 q(4,3)
19 q(4,4)
20 q(4,5)
21 q(4,6)
23 q(3,1)
24 q(3,2)
25 q(3,3)
26 q(3,4)
27 q(3,5)
28 q(3,6)
30 q(2,1)
31 q(2,2)
32 q(2,3)
33 q(2,4)
34 q(2,5)
35 q(2,6)
37 q(1,1)
38 q(1,2)
39 q(1,3)
40 q(1,4)
41 q(1,5)
42 q(1,6)
44 q(0,1)
45 q(0,2)
46 q(0,3)
47 q(0,4)
48 q(0,5)
49 q(0,6)
0
B+
0
B-
1
0
1
