1 2 0 0
1 3 0 0
1 4 0 0
1 5 0 0
1 6 0 0
1 7 0 0
1 8 0 0
1 9 0 0
1 10 0 0
1 11 8 7 12 13 14 15 16 17 18 19
1 12 8 7 11 13 14 15 16 17 18 19
1 13 8 7 11 12 14 15 16 17 18 19
1 14 8 7 11 12 13 15 16 17 18 19
1 15 8 7 11 12 13 14 16 17 18 19
1 16 8 7 11 12 13 14 15 17 18 19
1 17 8 7 11 12 13 14 15 16 18 19
1 18 8 7 11 12 13 14 15 16 17 19
1 19 0 0
1 20 8 7 21 22 23 24 25 26 27 28
1 21 8 7 20 22 23 24 25 26 27 28
1 22 8 7 20 21 23 24 25 26 27 28
1 23 8 7 20 21 22 24 25 26 27 28
1 24 8 7 20 21 22 23 25 26 27 28
1 25 8 7 20 21 22 23 24 26 27 28
1 26 8 7 20 21 22 23 24 25 27 28
1 27 8 7 20 21 22 23 24 25 26 28
1 28 0 0
1 29 8 7 30 31 32 33 34 35 36 37
1 30 8 7 29 31 32 33 34 35 36 37
1 31 8 7 29 30 32 33 34 35 36 37
1 32 8 7 29 30 31 33 34 35 36 37
1 33 8 7 29 30 31 32 34 35 36 37
1 34 8 7 29 30 31 32 33 35 36 37
1 35 8 7 29 30 31 32 33 34 36 37
1 36 8 7 29 30 31 32 33 34 35 37
1 37 0 0
1 38 8 7 39 40 41 42 43 44 45 46
1 39 8 7 38 40 41 42 43 44 45 46
1 40 8 7 38 39 41 42 43 44 45 46
1 41 8 7 38 39 40 42 43 44 45 46
1 42 8 7 38 39 40 41 43 44 45 46
1 43 8 7 38 39 40 41 42 44 45 46
1 44 8 7 38 39 40 41 42 43 45 46
1 45 8 7 38 39 40 41 42 43 44 46
1 46 0 0
1 47 8 7 48 49 50 51 52 53 54 55
1 48 8 7 47 49 50 51 52 53 54 55
1 49 8 7 47 48 50 51 52 53 54 55
1 50 8 7 47 48 49 51 52 53 54 55
1 51 8 7 47 48 49 50 52 53 54 55
1 52 8 7 47 48 49 50 51 53 54 55
1 53 8 7 47 48 49 50 51 52 54 55
1 54 8 7 47 48 49 50 51 52 53 55
1 55 0 0
1 56 8 7 57 58 59 60 61 62 63 64
1 57 8 7 56 58 59 60 61 62 63 64
1 58 8 7 56 57 59 60 61 62 63 64
1 59 8 7 56 57 58 60 61 62 63 64
1 60 8 7 56 57 58 59 61 62 63 64
1 61 8 7 56 57 58 59 60 62 63 64
1 62 8 7 56 57 58 59 60 61 63 64
1 63 8 7 56 57 58 59 60 61 62 64
1 64 0 0
1 65 8 7 66 67 68 69 70 71 72 73
1 66 8 7 65 67 68 69 70 71 72 73
1 67 8 7 65 66 68 69 70 71 72 73
1 68 8 7 65 66 67 69 70 71 72 73
1 69 8 7 65 66 67 68 70 71 72 73
1 70 8 7 65 66 67 68 69 71 72 73
1 71 8 7 65 66 67 68 69 70 72 73
1 72 8 7 65 66 67 68 69 70 71 73
1 73 0 0
1 74 8 7 75 76 77 78 79 80 81 82
1 75 8 7 74 76 77 78 79 80 81 82
1 76 8 7 74 75 77 78 79 80 81 82
1 77 8 7 74 75 76 78 79 80 81 82
1 78 8 7 74 75 76 77 79 80 81 82
1 79 8 7 74 75 76 77 78 80 81 82
1 80 8 7 74 75 76 77 78 79 81 82
1 81 8 7 74 75 76 77 78 79 80 82
1 82 0 0
1 1 2 0 81 72
1 1 2 0 81 63
1 1 2 0 81 54
1 1 2 0 81 45
1 1 2 0 81 36
1 1 2 0 81 27
1 1 2 0 81 18
1 1 2 0 80 71
1 1 2 0 80 62
1 1 2 0 80 53
1 1 2 0 80 44
1 1 2 0 80 35
1 1 2 0 80 26
1 1 2 0 80 17
1 1 2 0 79 70
1 1 2 0 79 61
1 1 2 0 79 52
1 1 2 0 79 43
1 1 2 0 79 34
1 1 2 0 79 25
1 1 2 0 79 16
1 1 2 0 78 69
1 1 2 0 78 60
1 1 2 0 78 51
1 1 2 0 78 42
1 1 2 0 78 33
1 1 2 0 78 24
1 1 2 0 78 15
1 1 2 0 77 68
1 1 2 0 77 59
1 1 2 0 77 50
1 1 2 0 77 41
1 1 2 0 77 32
1 1 2 0 77 23
1 1 2 0 77 14
1 1 2 0 76 67
1 1 2 0 76 58
1 1 2 0 76 49
1 1 2 0 76 40
1 1 2 0 76 31
1 1 2 0 76 22
1 1 2 0 76 13
1 1 2 0 75 66
1 1 2 0 75 57
1 1 2 0 75 48
1 1 2 0 75 39
1 1 2 0 75 30
1 1 2 0 75 21
1 1 2 0 75 12
1 1 2 0 74 65
1 1 2 0 74 56
1 1 2 0 74 47
1 1 2 0 74 38
1 1 2 0 74 29
1 1 2 0 74 20
1 1 2 0 74 11
1 1 2 0 72 81
1 1 2 0 72 63
1 1 2 0 72 54
1 1 2 0 72 45
1 1 2 0 72 36
1 1 2 0 72 27
1 1 2 0 72 18
1 1 2 0 71 80
1 1 2 0 71 62
1 1 2 0 71 53
1 1 2 0 71 44
1 1 2 0 71 35
1 1 2 0 71 26
1 1 2 0 71 17
1 1 2 0 70 79
1 1 2 0 70 61
1 1 2 0 70 52
1 1 2 0 70 43
1 1 2 0 70 34
1 1 2 0 70 25
1 1 2 0 70 16
1 1 2 0 69 78
1 1 2 0 69 60
1 1 2 0 69 51
1 1 2 0 69 42
1 1 2 0 69 33
1 1 2 0 69 24
1 1 2 0 69 15
1 1 2 0 68 77
1 1 2 0 68 59
1 1 2 0 68 50
1 1 2 0 68 41
1 1 2 0 68 32
1 1 2 0 68 23
1 1 2 0 68 14
1 1 2 0 67 76
1 1 2 0 67 58
1 1 2 0 67 49
1 1 2 0 67 40
1 1 2 0 67 31
1 1 2 0 67 22
1 1 2 0 67 13
1 1 2 0 66 75
1 1 2 0 66 57
1 1 2 0 66 48
1 1 2 0 66 39
1 1 2 0 66 30
1 1 2 0 66 21
1 1 2 0 66 12
1 1 2 0 65 74
1 1 2 0 65 56
1 1 2 0 65 47
1 1 2 0 65 38
1 1 2 0 65 29
1 1 2 0 65 20
1 1 2 0 65 11
1 1 2 0 63 81
1 1 2 0 63 72
1 1 2 0 63 54
1 1 2 0 63 45
1 1 2 0 63 36
1 1 2 0 63 27
1 1 2 0 63 18
1 1 2 0 62 80
1 1 2 0 62 71
1 1 2 0 62 53
1 1 2 0 62 44
1 1 2 0 62 35
1 1 2 0 62 26
1 1 2 0 62 17
1 1 2 0 61 79
1 1 2 0 61 70
1 1 2 0 61 52
1 1 2 0 61 43
1 1 2 0 61 34
1 1 2 0 61 25
1 1 2 0 61 16
1 1 2 0 60 78
1 1 2 0 60 69
1 1 2 0 60 51
1 1 2 0 60 42
1 1 2 0 60 33
1 1 2 0 60 24
1 1 2 0 60 15
1 1 2 0 59 77
1 1 2 0 59 68
1 1 2 0 59 50
1 1 2 0 59 41
1 1 2 0 59 32
1 1 2 0 59 23
1 1 2 0 59 14
1 1 2 0 58 76
1 1 2 0 58 67
1 1 2 0 58 49
1 1 2 0 58 40
1 1 2 0 58 31
1 1 2 0 58 22
1 1 2 0 58 13
1 1 2 0 57 75
1 1 2 0 57 66
1 1 2 0 57 48
1 1 2 0 57 39
1 1 2 0 57 30
1 1 2 0 57 21
1 1 2 0 57 12
1 1 2 0 56 74
1 1 2 0 56 65
1 1 2 0 56 47
1 1 2 0 56 38
1 1 2 0 56 29
1 1 2 0 56 20
1 1 2 0 56 11
1 1 2 0 54 81
1 1 2 0 54 72
1 1 2 0 54 63
1 1 2 0 54 45
1 1 2 0 54 36
1 1 2 0 54 27
1 1 2 0 54 18
1 1 2 0 53 80
1 1 2 0 53 71
1 1 2 0 53 62
1 1 2 0 53 44
1 1 2 0 53 35
1 1 2 0 53 26
1 1 2 0 53 17
1 1 2 0 52 79
1 1 2 0 52 70
1 1 2 0 52 61
1 1 2 0 52 43
1 1 2 0 52 34
1 1 2 0 52 25
1 1 2 0 52 16
1 1 2 0 51 78
1 1 2 0 51 69
1 1 2 0 51 60
1 1 2 0 51 42
1 1 2 0 51 33
1 1 2 0 51 24
1 1 2 0 51 15
1 1 2 0 50 77
1 1 2 0 50 68
1 1 2 0 50 59
1 1 2 0 50 41
1 1 2 0 50 32
1 1 2 0 50 23
1 1 2 0 50 14
1 1 2 0 49 76
1 1 2 0 49 67
1 1 2 0 49 58
1 1 2 0 49 40
1 1 2 0 49 31
1 1 2 0 49 22
1 1 2 0 49 13
1 1 2 0 48 75
1 1 2 0 48 66
1 1 2 0 48 57
1 1 2 0 48 39
1 1 2 0 48 30
1 1 2 0 48 21
1 1 2 0 48 12
1 1 2 0 47 74
1 1 2 0 47 65
1 1 2 0 47 56
1 1 2 0 47 38
1 1 2 0 47 29
1 1 2 0 47 20
1 1 2 0 47 11
1 1 2 0 45 81
1 1 2 0 45 72
1 1 2 0 45 63
1 1 2 0 45 54
1 1 2 0 45 36
1 1 2 0 45 27
1 1 2 0 45 18
1 1 2 0 44 80
1 1 2 0 44 71
1 1 2 0 44 62
1 1 2 0 44 53
1 1 2 0 44 35
1 1 2 0 44 26
1 1 2 0 44 17
1 1 2 0 43 79
1 1 2 0 43 70
1 1 2 0 43 61
1 1 2 0 43 52
1 1 2 0 43 34
1 1 2 0 43 25
1 1 2 0 43 16
1 1 2 0 42 78
1 1 2 0 42 69
1 1 2 0 42 60
1 1 2 0 42 51
1 1 2 0 42 33
1 1 2 0 42 24
1 1 2 0 42 15
1 1 2 0 41 77
1 1 2 0 41 68
1 1 2 0 41 59
1 1 2 0 41 50
1 1 2 0 41 32
1 1 2 0 41 23
1 1 2 0 41 14
1 1 2 0 40 76
1 1 2 0 40 67
1 1 2 0 40 58
1 1 2 0 40 49
1 1 2 0 40 31
1 1 2 0 40 22
1 1 2 0 40 13
1 1 2 0 39 75
1 1 2 0 39 66
1 1 2 0 39 57
1 1 2 0 39 48
1 1 2 0 39 30
1 1 2 0 39 21
1 1 2 0 39 12
1 1 2 0 38 74
1 1 2 0 38 65
1 1 2 0 38 56
1 1 2 0 38 47
1 1 2 0 38 29
1 1 2 0 38 20
1 1 2 0 38 11
1 1 2 0 36 81
1 1 2 0 36 72
1 1 2 0 36 63
1 1 2 0 36 54
1 1 2 0 36 45
1 1 2 0 36 27
1 1 2 0 36 18
1 1 2 0 35 80
1 1 2 0 35 71
1 1 2 0 35 62
1 1 2 0 35 53
1 1 2 0 35 44
1 1 2 0 35 26
1 1 2 0 35 17
1 1 2 0 34 79
1 1 2 0 34 70
1 1 2 0 34 61
1 1 2 0 34 52
1 1 2 0 34 43
1 1 2 0 34 25
1 1 2 0 34 16
1 1 2 0 33 78
1 1 2 0 33 69
1 1 2 0 33 60
1 1 2 0 33 51
1 1 2 0 33 42
1 1 2 0 33 24
1 1 2 0 33 15
1 1 2 0 32 77
1 1 2 0 32 68
1 1 2 0 32 59
1 1 2 0 32 50
1 1 2 0 32 41
1 1 2 0 32 23
1 1 2 0 32 14
1 1 2 0 31 76
1 1 2 0 31 67
1 1 2 0 31 58
1 1 2 0 31 49
1 1 2 0 31 40
1 1 2 0 31 22
1 1 2 0 31 13
1 1 2 0 30 75
1 1 2 0 30 66
1 1 2 0 30 57
1 1 2 0 30 48
1 1 2 0 30 39
1 1 2 0 30 21
1 1 2 0 30 12
1 1 2 0 29 74
1 1 2 0 29 65
1 1 2 0 29 56
1 1 2 0 29 47
1 1 2 0 29 38
1 1 2 0 29 20
1 1 2 0 29 11
1 1 2 0 27 81
1 1 2 0 27 72
1 1 2 0 27 63
1 1 2 0 27 54
1 1 2 0 27 45
1 1 2 0 27 36
1 1 2 0 27 18
1 1 2 0 26 80
1 1 2 0 26 71
1 1 2 0 26 62
1 1 2 0 26 53
1 1 2 0 26 44
1 1 2 0 26 35
1 1 2 0 26 17
1 1 2 0 25 79
1 1 2 0 25 70
1 1 2 0 25 61
1 1 2 0 25 52
1 1 2 0 25 43
1 1 2 0 25 34
1 1 2 0 25 16
1 1 2 0 24 78
1 1 2 0 24 69
1 1 2 0 24 60
1 1 2 0 24 51
1 1 2 0 24 42
1 1 2 0 24 33
1 1 2 0 24 15
1 1 2 0 23 77
1 1 2 0 23 68
1 1 2 0 23 59
1 1 2 0 23 50
1 1 2 0 23 41
1 1 2 0 23 32
1 1 2 0 23 14
1 1 2 0 22 76
1 1 2 0 22 67
1 1 2 0 22 58
1 1 2 0 22 49
1 1 2 0 22 40
1 1 2 0 22 31
1 1 2 0 22 13
1 1 2 0 21 75
1 1 2 0 21 66
1 1 2 0 21 57
1 1 2 0 21 48
1 1 2 0 21 39
1 1 2 0 21 30
1 1 2 0 21 12
1 1 2 0 20 74
1 1 2 0 20 65
1 1 2 0 20 56
1 1 2 0 20 47
1 1 2 0 20 38
1 1 2 0 20 29
1 1 2 0 20 11
1 1 2 0 18 81
1 1 2 0 18 72
1 1 2 0 18 63
1 1 2 0 18 54
1 1 2 0 18 45
1 1 2 0 18 36
1 1 2 0 18 27
1 1 2 0 17 80
1 1 2 0 17 71
1 1 2 0 17 62
1 1 2 0 17 53
1 1 2 0 17 44
1 1 2 0 17 35
1 1 2 0 17 26
1 1 2 0 16 79
1 1 2 0 16 70
1 1 2 0 16 61
1 1 2 0 16 52
1 1 2 0 16 43
1 1 2 0 16 34
1 1 2 0 16 25
1 1 2 0 15 78
1 1 2 0 15 69
1 1 2 0 15 60
1 1 2 0 15 51
1 1 2 0 15 42
1 1 2 0 15 33
1 1 2 0 15 24
1 1 2 0 14 77
1 1 2 0 14 68
1 1 2 0 14 59
1 1 2 0 14 50
1 1 2 0 14 41
1 1 2 0 14 32
1 1 2 0 14 23
1 1 2 0 13 76
1 1 2 0 13 67
1 1 2 0 13 58
1 1 2 0 13 49
1 1 2 0 13 40
1 1 2 0 13 31
1 1 2 0 13 22
1 1 2 0 12 75
1 1 2 0 12 66
1 1 2 0 12 57
1 1 2 0 12 48
1 1 2 0 12 39
1 1 2 0 12 30
1 1 2 0 12 21
1 1 2 0 11 74
1 1 2 0 11 65
1 1 2 0 11 56
1 1 2 0 11 47
1 1 2 0 11 38
1 1 2 0 11 29
1 1 2 0 11 20
1 1 2 0 80 72
1 1 2 0 79 71
1 1 2 0 79 63
1 1 2 0 78 70
1 1 2 0 78 62
1 1 2 0 78 54
1 1 2 0 77 69
1 1 2 0 77 61
1 1 2 0 77 53
1 1 2 0 77 45
1 1 2 0 76 68
1 1 2 0 76 60
1 1 2 0 76 52
1 1 2 0 76 44
1 1 2 0 76 36
1 1 2 0 75 67
1 1 2 0 75 59
1 1 2 0 75 51
1 1 2 0 75 43
1 1 2 0 75 35
1 1 2 0 75 27
1 1 2 0 74 66
1 1 2 0 74 58
1 1 2 0 74 50
1 1 2 0 74 42
1 1 2 0 74 34
1 1 2 0 74 26
1 1 2 0 74 18
1 1 2 0 71 63
1 1 2 0 70 62
1 1 2 0 70 54
1 1 2 0 69 61
1 1 2 0 69 53
1 1 2 0 69 45
1 1 2 0 68 60
1 1 2 0 68 52
1 1 2 0 68 44
1 1 2 0 68 36
1 1 2 0 67 59
1 1 2 0 67 51
1 1 2 0 67 43
1 1 2 0 67 35
1 1 2 0 67 27
1 1 2 0 66 58
1 1 2 0 66 50
1 1 2 0 66 42
1 1 2 0 66 34
1 1 2 0 66 26
1 1 2 0 66 18
1 1 2 0 65 57
1 1 2 0 65 49
1 1 2 0 65 41
1 1 2 0 65 33
1 1 2 0 65 25
1 1 2 0 65 17
1 1 2 0 62 54
1 1 2 0 61 53
1 1 2 0 61 45
1 1 2 0 60 52
1 1 2 0 60 44
1 1 2 0 60 36
1 1 2 0 59 51
1 1 2 0 59 43
1 1 2 0 59 35
1 1 2 0 59 27
1 1 2 0 58 50
1 1 2 0 58 42
1 1 2 0 58 34
1 1 2 0 58 26
1 1 2 0 58 18
1 1 2 0 57 49
1 1 2 0 57 41
1 1 2 0 57 33
1 1 2 0 57 25
1 1 2 0 57 17
1 1 2 0 56 48
1 1 2 0 56 40
1 1 2 0 56 32
1 1 2 0 56 24
1 1 2 0 56 16
1 1 2 0 53 45
1 1 2 0 52 44
1 1 2 0 52 36
1 1 2 0 51 43
1 1 2 0 51 35
1 1 2 0 51 27
1 1 2 0 50 42
1 1 2 0 50 34
1 1 2 0 50 26
1 1 2 0 50 18
1 1 2 0 49 41
1 1 2 0 49 33
1 1 2 0 49 25
1 1 2 0 49 17
1 1 2 0 48 40
1 1 2 0 48 32
1 1 2 0 48 24
1 1 2 0 48 16
1 1 2 0 47 39
1 1 2 0 47 31
1 1 2 0 47 23
1 1 2 0 47 15
1 1 2 0 44 36
1 1 2 0 43 35
1 1 2 0 43 27
1 1 2 0 42 34
1 1 2 0 42 26
1 1 2 0 42 18
1 1 2 0 41 33
1 1 2 0 41 25
1 1 2 0 41 17
1 1 2 0 40 32
1 1 2 0 40 24
1 1 2 0 40 16
1 1 2 0 39 31
1 1 2 0 39 23
1 1 2 0 39 15
1 1 2 0 38 30
1 1 2 0 38 22
1 1 2 0 38 14
1 1 2 0 35 27
1 1 2 0 34 26
1 1 2 0 34 18
1 1 2 0 33 25
1 1 2 0 33 17
1 1 2 0 32 24
1 1 2 0 32 16
1 1 2 0 31 23
1 1 2 0 31 15
1 1 2 0 30 22
1 1 2 0 30 14
1 1 2 0 29 21
1 1 2 0 29 13
1 1 2 0 26 18
1 1 2 0 25 17
1 1 2 0 24 16
1 1 2 0 23 15
1 1 2 0 22 14
1 1 2 0 21 13
1 1 2 0 20 12
1 1 2 0 81 71
1 1 2 0 81 61
1 1 2 0 81 51
1 1 2 0 81 41
1 1 2 0 81 31
1 1 2 0 81 21
1 1 2 0 81 11
1 1 2 0 80 70
1 1 2 0 80 60
1 1 2 0 80 50
1 1 2 0 80 40
1 1 2 0 80 30
1 1 2 0 80 20
1 1 2 0 79 69
1 1 2 0 79 59
1 1 2 0 79 49
1 1 2 0 79 39
1 1 2 0 79 29
1 1 2 0 78 68
1 1 2 0 78 58
1 1 2 0 78 48
1 1 2 0 78 38
1 1 2 0 77 67
1 1 2 0 77 57
1 1 2 0 77 47
1 1 2 0 76 66
1 1 2 0 76 56
1 1 2 0 75 65
1 1 2 0 72 62
1 1 2 0 72 52
1 1 2 0 72 42
1 1 2 0 72 32
1 1 2 0 72 22
1 1 2 0 72 12
1 1 2 0 71 61
1 1 2 0 71 51
1 1 2 0 71 41
1 1 2 0 71 31
1 1 2 0 71 21
1 1 2 0 71 11
1 1 2 0 70 60
1 1 2 0 70 50
1 1 2 0 70 40
1 1 2 0 70 30
1 1 2 0 70 20
1 1 2 0 69 59
1 1 2 0 69 49
1 1 2 0 69 39
1 1 2 0 69 29
1 1 2 0 68 58
1 1 2 0 68 48
1 1 2 0 68 38
1 1 2 0 67 57
1 1 2 0 67 47
1 1 2 0 66 56
1 1 2 0 63 53
1 1 2 0 63 43
1 1 2 0 63 33
1 1 2 0 63 23
1 1 2 0 63 13
1 1 2 0 62 52
1 1 2 0 62 42
1 1 2 0 62 32
1 1 2 0 62 22
1 1 2 0 62 12
1 1 2 0 61 51
1 1 2 0 61 41
1 1 2 0 61 31
1 1 2 0 61 21
1 1 2 0 61 11
1 1 2 0 60 50
1 1 2 0 60 40
1 1 2 0 60 30
1 1 2 0 60 20
1 1 2 0 59 49
1 1 2 0 59 39
1 1 2 0 59 29
1 1 2 0 58 48
1 1 2 0 58 38
1 1 2 0 57 47
1 1 2 0 54 44
1 1 2 0 54 34
1 1 2 0 54 24
1 1 2 0 54 14
1 1 2 0 53 43
1 1 2 0 53 33
1 1 2 0 53 23
1 1 2 0 53 13
1 1 2 0 52 42
1 1 2 0 52 32
1 1 2 0 52 22
1 1 2 0 52 12
1 1 2 0 51 41
1 1 2 0 51 31
1 1 2 0 51 21
1 1 2 0 51 11
1 1 2 0 50 40
1 1 2 0 50 30
1 1 2 0 50 20
1 1 2 0 49 39
1 1 2 0 49 29
1 1 2 0 48 38
1 1 2 0 45 35
1 1 2 0 45 25
1 1 2 0 45 15
1 1 2 0 44 34
1 1 2 0 44 24
1 1 2 0 44 14
1 1 2 0 43 33
1 1 2 0 43 23
1 1 2 0 43 13
1 1 2 0 42 32
1 1 2 0 42 22
1 1 2 0 42 12
1 1 2 0 41 31
1 1 2 0 41 21
1 1 2 0 41 11
1 1 2 0 40 30
1 1 2 0 40 20
1 1 2 0 39 29
1 1 2 0 36 26
1 1 2 0 36 16
1 1 2 0 35 25
1 1 2 0 35 15
1 1 2 0 34 24
1 1 2 0 34 14
1 1 2 0 33 23
1 1 2 0 33 13
1 1 2 0 32 22
1 1 2 0 32 12
1 1 2 0 31 21
1 1 2 0 31 11
1 1 2 0 30 20
1 1 2 0 27 17
1 1 2 0 26 16
1 1 2 0 25 15
1 1 2 0 24 14
1 1 2 0 23 13
1 1 2 0 22 12
1 1 2 0 21 11
0
11 q(7,1)
12 q(7,2)
13 q(7,3)
14 q(7,4)
15 q(7,5)
16 q(7,6)
17 q(7,7)
18 q(7,8)
20 q(6,1)
21 q(6,2)
22 q(6,3)
23 q(6,4)
24 q(6,5)
25 q(6,6)
26 q(6,7)
27 q(6,8)
29 q(5,1)
30 q(5,2)
31 q(5,3)
32 q(5,4)
33 q(5,5)
34 q(5,6)
35 q(5,7)
36 q(5,8)
38 q(4,1)
39 q(4,2)
40 q(4,3)
41 q(4,4)
42 q(4,5)
43 q(4,6)
44 q(4,7)
45 q(4,8)
47 q(3,1)
48 q(3,2)
49 q(3,3)
50 q(3,4)
51 q(3,5)
52 q(3,6)
53 q(3,7)
54 q(3,8)
56 q(2,1)
57 q(2,2)
58 q(2,3)
59 q(2,4)
60 q(2,5)
61 q(2,6)
62 q(2,7)
63 q(2,8)
65 q(1,1)
66 q(1,2)
67 q(1,3)
68 q(1,4)
69 q(1,5)
70 q(1,6)
71 q(1,7)
72 q(1,8)
74 q(0,1)
75 q(0,2)
76 q(0,3)
77 q(0,4)
78 q(0,5)
79 q(0,6)
80 q(0,7)
81 q(0,8)
0
B+
0
B-
1
0
1
