1 2 0 0
1 3 0 0
1 4 0 0
1 5 0 0
1 6 0 0
1 7 0 0
1 8 0 0
1 9 0 0
1 10 0 0
1 11 0 0
1 12 0 0
1 13 0 0
1 14 0 0
1 15 0 0
1 16 0 0
1 17 0 0
1 18 0 0
1 19 0 0
1 20 0 0
1 21 0 0
1 22 0 0
1 23 0 0
1 24 0 0
1 25 0 0
1 26 0 0
1 27 0 0
1 28 0 0
1 29 0 0
1 30 0 0
1 31 0 0
1 32 0 0
1 33 0 0
1 34 0 0
1 35 0 0
1 36 0 0
1 37 0 0
1 38 0 0
1 39 0 0
1 40 0 0
1 41 0 0
1 42 0 0
1 43 0 0
1 44 0 0
1 45 0 0
1 46 0 0
1 47 0 0
1 48 0 0
1 49 0 0
1 50 0 0
1 51 0 0
1 52 0 0
1 53 0 0
1 54 0 0
1 55 0 0
1 56 0 0
1 57 0 0
1 58 0 0
1 59 0 0
1 60 0 0
1 61 0 0
1 62 0 0
1 63 0 0
1 64 0 0
1 65 0 0
1 66 0 0
1 67 0 0
1 68 0 0
1 69 0 0
1 70 0 0
1 71 0 0
1 72 0 0
1 73 0 0
1 74 0 0
1 75 0 0
1 76 0 0
1 77 0 0
1 78 0 0
1 79 0 0
1 80 0 0
1 81 0 0
1 82 0 0
1 83 0 0
1 84 0 0
1 85 0 0
1 86 2 1 87 88
1 87 2 1 86 88
1 88 0 0
1 89 2 1 90 91
1 90 2 1 89 91
1 91 0 0
1 92 2 1 93 94
1 93 2 1 92 94
1 94 0 0
1 95 2 1 96 97
1 96 2 1 95 97
1 97 0 0
1 98 2 1 99 100
1 99 2 1 98 100
1 100 0 0
1 101 2 1 102 103
1 102 2 1 101 103
1 103 0 0
1 104 2 1 105 106
1 105 2 1 104 106
1 106 0 0
1 107 2 1 108 109
1 108 2 1 107 109
1 109 0 0
1 110 2 1 111 112
1 111 2 1 110 112
1 112 0 0
1 113 2 1 114 115
1 114 2 1 113 115
1 115 0 0
1 116 2 1 117 118
1 117 2 1 116 118
1 118 0 0
1 119 2 1 120 121
1 120 2 1 119 121
1 121 0 0
1 122 2 1 123 124
1 123 2 1 122 124
1 124 0 0
1 125 2 1 126 127
1 126 2 1 125 127
1 127 0 0
1 128 2 1 129 130
1 129 2 1 128 130
1 130 0 0
1 131 2 1 132 133
1 132 2 1 131 133
1 133 0 0
1 134 2 1 135 136
1 135 2 1 134 136
1 136 0 0
1 137 2 1 138 139
1 138 2 1 137 139
1 139 0 0
1 140 2 1 141 142
1 141 2 1 140 142
1 142 0 0
1 143 2 1 144 145
1 144 2 1 143 145
1 145 0 0
1 146 2 1 147 148
1 147 2 1 146 148
1 148 0 0
1 149 2 1 150 151
1 150 2 1 149 151
1 151 0 0
1 152 2 1 153 154
1 153 2 1 152 154
1 154 0 0
1 155 2 1 156 157
1 156 2 1 155 157
1 157 0 0
1 158 2 1 159 160
1 159 2 1 158 160
1 160 0 0
1 161 2 1 162 163
1 162 2 1 161 163
1 163 0 0
1 164 2 1 165 166
1 165 2 1 164 166
1 166 0 0
1 167 2 1 168 169
1 168 2 1 167 169
1 169 0 0
1 170 2 1 171 172
1 171 2 1 170 172
1 172 0 0
1 173 2 1 174 175
1 174 2 1 173 175
1 175 0 0
1 176 2 1 177 178
1 177 2 1 176 178
1 178 0 0
1 179 2 1 180 181
1 180 2 1 179 181
1 181 0 0
1 182 2 1 183 184
1 183 2 1 182 184
1 184 0 0
1 185 2 1 186 187
1 186 2 1 185 187
1 187 0 0
1 188 2 1 189 190
1 189 2 1 188 190
1 190 0 0
1 191 2 1 192 193
1 192 2 1 191 193
1 193 0 0
1 194 2 1 195 196
1 195 2 1 194 196
1 196 0 0
1 197 2 1 198 199
1 198 2 1 197 199
1 199 0 0
1 200 2 1 201 202
1 201 2 1 200 202
1 202 0 0
1 203 2 1 204 205
1 204 2 1 203 205
1 205 0 0
1 206 2 1 207 208
1 207 2 1 206 208
1 208 0 0
1 209 2 1 210 211
1 210 2 1 209 211
1 211 0 0
1 212 2 1 213 214
1 213 2 1 212 214
1 214 0 0
1 215 2 1 216 217
1 216 2 1 215 217
1 217 0 0
1 218 2 1 219 220
1 219 2 1 218 220
1 220 0 0
1 221 2 1 222 223
1 222 2 1 221 223
1 223 0 0
1 224 2 1 225 226
1 225 2 1 224 226
1 226 0 0
1 227 2 1 228 229
1 228 2 1 227 229
1 229 0 0
1 230 2 1 231 232
1 231 2 1 230 232
1 232 0 0
1 233 2 1 234 235
1 234 2 1 233 235
1 235 0 0
1 236 2 1 237 238
1 237 2 1 236 238
1 238 0 0
1 239 2 1 240 241
1 240 2 1 239 241
1 241 0 0
1 242 2 1 243 244
1 243 2 1 242 244
1 244 0 0
1 245 2 1 246 247
1 246 2 1 245 247
1 247 0 0
1 248 2 1 249 250
1 249 2 1 248 250
1 250 0 0
1 251 2 1 252 253
1 252 2 1 251 253
1 253 0 0
1 254 2 1 255 256
1 255 2 1 254 256
1 256 0 0
1 257 2 1 258 259
1 258 2 1 257 259
1 259 0 0
1 260 2 1 261 262
1 261 2 1 260 262
1 262 0 0
1 263 2 1 264 265
1 264 2 1 263 265
1 265 0 0
1 266 2 1 267 268
1 267 2 1 266 268
1 268 0 0
1 269 2 1 270 271
1 270 2 1 269 271
1 271 0 0
1 272 2 1 273 274
1 273 2 1 272 274
1 274 0 0
1 275 2 1 276 277
1 276 2 1 275 277
1 277 0 0
1 278 2 1 279 280
1 279 2 1 278 280
1 280 0 0
1 281 2 1 282 283
1 282 2 1 281 283
1 283 0 0
1 284 2 1 285 286
1 285 2 1 284 286
1 286 0 0
1 287 2 1 288 289
1 288 2 1 287 289
1 289 0 0
1 290 1 0 110
1 291 1 0 113
1 292 1 0 116
1 293 1 0 107
1 290 2 0 293 89
1 294 2 0 293 92
1 295 2 0 293 95
1 296 2 0 293 98
1 297 2 0 293 101
1 292 2 0 293 104
1 298 2 0 293 86
1 293 2 0 290 119
1 295 2 0 290 131
1 291 2 0 290 128
1 299 2 0 290 125
1 298 2 0 290 122
1 290 2 0 291 161
1 299 2 0 291 164
1 300 2 0 291 167
1 292 2 0 291 170
1 298 2 0 291 158
1 293 2 0 292 278
1 294 2 0 292 287
1 291 2 0 292 284
1 298 2 0 292 281
1 290 2 0 298 110
1 291 2 0 298 113
1 292 2 0 298 116
1 293 2 0 298 107
1 290 2 0 299 143
1 300 2 0 299 152
1 295 2 0 299 149
1 301 2 0 299 155
1 291 2 0 299 146
1 296 2 0 294 197
1 297 2 0 294 200
1 292 2 0 294 203
1 293 2 0 294 194
1 290 2 0 295 209
1 302 2 0 295 212
1 299 2 0 295 215
1 303 2 0 295 218
1 296 2 0 295 221
1 301 2 0 295 224
1 293 2 0 295 206
1 299 2 0 300 227
1 301 2 0 300 236
1 304 2 0 300 233
1 291 2 0 300 230
1 293 2 0 296 239
1 297 2 0 296 251
1 295 2 0 296 248
1 294 2 0 296 245
1 302 2 0 296 242
1 293 2 0 297 269
1 296 2 0 297 275
1 294 2 0 297 272
1 303 2 0 302 134
1 296 2 0 302 140
1 295 2 0 302 137
1 300 2 0 304 176
1 301 2 0 304 179
1 303 2 0 304 173
1 304 2 0 303 185
1 295 2 0 303 188
1 301 2 0 303 191
1 302 2 0 303 182
1 299 2 0 301 254
1 300 2 0 301 266
1 295 2 0 301 263
1 303 2 0 301 260
1 304 2 0 301 257
1 1 2 0 89 86
1 1 2 0 92 86
1 1 2 0 95 86
1 1 2 0 98 86
1 1 2 0 101 86
1 1 2 0 104 86
1 1 2 0 92 89
1 1 2 0 95 89
1 1 2 0 98 89
1 1 2 0 101 89
1 1 2 0 104 89
1 1 2 0 86 89
1 1 2 0 89 92
1 1 2 0 95 92
1 1 2 0 98 92
1 1 2 0 101 92
1 1 2 0 104 92
1 1 2 0 86 92
1 1 2 0 89 95
1 1 2 0 92 95
1 1 2 0 98 95
1 1 2 0 101 95
1 1 2 0 104 95
1 1 2 0 86 95
1 1 2 0 89 98
1 1 2 0 92 98
1 1 2 0 95 98
1 1 2 0 101 98
1 1 2 0 104 98
1 1 2 0 86 98
1 1 2 0 89 101
1 1 2 0 92 101
1 1 2 0 95 101
1 1 2 0 98 101
1 1 2 0 104 101
1 1 2 0 86 101
1 1 2 0 89 104
1 1 2 0 92 104
1 1 2 0 95 104
1 1 2 0 98 104
1 1 2 0 101 104
1 1 2 0 86 104
1 1 2 0 110 107
1 1 2 0 113 107
1 1 2 0 116 107
1 1 2 0 113 110
1 1 2 0 116 110
1 1 2 0 107 110
1 1 2 0 110 113
1 1 2 0 116 113
1 1 2 0 107 113
1 1 2 0 110 116
1 1 2 0 113 116
1 1 2 0 107 116
1 1 2 0 131 119
1 1 2 0 128 119
1 1 2 0 125 119
1 1 2 0 122 119
1 1 2 0 119 122
1 1 2 0 131 122
1 1 2 0 128 122
1 1 2 0 125 122
1 1 2 0 119 125
1 1 2 0 131 125
1 1 2 0 128 125
1 1 2 0 122 125
1 1 2 0 119 128
1 1 2 0 131 128
1 1 2 0 125 128
1 1 2 0 122 128
1 1 2 0 119 131
1 1 2 0 128 131
1 1 2 0 125 131
1 1 2 0 122 131
1 1 2 0 140 134
1 1 2 0 137 134
1 1 2 0 134 137
1 1 2 0 140 137
1 1 2 0 134 140
1 1 2 0 137 140
1 1 2 0 152 143
1 1 2 0 149 143
1 1 2 0 155 143
1 1 2 0 146 143
1 1 2 0 143 146
1 1 2 0 152 146
1 1 2 0 149 146
1 1 2 0 155 146
1 1 2 0 143 149
1 1 2 0 152 149
1 1 2 0 155 149
1 1 2 0 146 149
1 1 2 0 143 152
1 1 2 0 149 152
1 1 2 0 155 152
1 1 2 0 146 152
1 1 2 0 143 155
1 1 2 0 152 155
1 1 2 0 149 155
1 1 2 0 146 155
1 1 2 0 161 158
1 1 2 0 164 158
1 1 2 0 167 158
1 1 2 0 170 158
1 1 2 0 164 161
1 1 2 0 167 161
1 1 2 0 170 161
1 1 2 0 158 161
1 1 2 0 161 164
1 1 2 0 167 164
1 1 2 0 170 164
1 1 2 0 158 164
1 1 2 0 161 167
1 1 2 0 164 167
1 1 2 0 170 167
1 1 2 0 158 167
1 1 2 0 161 170
1 1 2 0 164 170
1 1 2 0 167 170
1 1 2 0 158 170
1 1 2 0 176 173
1 1 2 0 179 173
1 1 2 0 179 176
1 1 2 0 173 176
1 1 2 0 176 179
1 1 2 0 173 179
1 1 2 0 185 182
1 1 2 0 188 182
1 1 2 0 191 182
1 1 2 0 188 185
1 1 2 0 191 185
1 1 2 0 182 185
1 1 2 0 185 188
1 1 2 0 191 188
1 1 2 0 182 188
1 1 2 0 185 191
1 1 2 0 188 191
1 1 2 0 182 191
1 1 2 0 197 194
1 1 2 0 200 194
1 1 2 0 203 194
1 1 2 0 200 197
1 1 2 0 203 197
1 1 2 0 194 197
1 1 2 0 197 200
1 1 2 0 203 200
1 1 2 0 194 200
1 1 2 0 197 203
1 1 2 0 200 203
1 1 2 0 194 203
1 1 2 0 209 206
1 1 2 0 212 206
1 1 2 0 215 206
1 1 2 0 218 206
1 1 2 0 221 206
1 1 2 0 224 206
1 1 2 0 212 209
1 1 2 0 215 209
1 1 2 0 218 209
1 1 2 0 221 209
1 1 2 0 224 209
1 1 2 0 206 209
1 1 2 0 209 212
1 1 2 0 215 212
1 1 2 0 218 212
1 1 2 0 221 212
1 1 2 0 224 212
1 1 2 0 206 212
1 1 2 0 209 215
1 1 2 0 212 215
1 1 2 0 218 215
1 1 2 0 221 215
1 1 2 0 224 215
1 1 2 0 206 215
1 1 2 0 209 218
1 1 2 0 212 218
1 1 2 0 215 218
1 1 2 0 221 218
1 1 2 0 224 218
1 1 2 0 206 218
1 1 2 0 209 221
1 1 2 0 212 221
1 1 2 0 215 221
1 1 2 0 218 221
1 1 2 0 224 221
1 1 2 0 206 221
1 1 2 0 209 224
1 1 2 0 212 224
1 1 2 0 215 224
1 1 2 0 218 224
1 1 2 0 221 224
1 1 2 0 206 224
1 1 2 0 236 227
1 1 2 0 233 227
1 1 2 0 230 227
1 1 2 0 227 230
1 1 2 0 236 230
1 1 2 0 233 230
1 1 2 0 227 233
1 1 2 0 236 233
1 1 2 0 230 233
1 1 2 0 227 236
1 1 2 0 233 236
1 1 2 0 230 236
1 1 2 0 251 239
1 1 2 0 248 239
1 1 2 0 245 239
1 1 2 0 242 239
1 1 2 0 239 242
1 1 2 0 251 242
1 1 2 0 248 242
1 1 2 0 245 242
1 1 2 0 239 245
1 1 2 0 251 245
1 1 2 0 248 245
1 1 2 0 242 245
1 1 2 0 239 248
1 1 2 0 251 248
1 1 2 0 245 248
1 1 2 0 242 248
1 1 2 0 239 251
1 1 2 0 248 251
1 1 2 0 245 251
1 1 2 0 242 251
1 1 2 0 266 254
1 1 2 0 263 254
1 1 2 0 260 254
1 1 2 0 257 254
1 1 2 0 254 257
1 1 2 0 266 257
1 1 2 0 263 257
1 1 2 0 260 257
1 1 2 0 254 260
1 1 2 0 266 260
1 1 2 0 263 260
1 1 2 0 257 260
1 1 2 0 254 263
1 1 2 0 266 263
1 1 2 0 260 263
1 1 2 0 257 263
1 1 2 0 254 266
1 1 2 0 263 266
1 1 2 0 260 266
1 1 2 0 257 266
1 1 2 0 275 269
1 1 2 0 272 269
1 1 2 0 269 272
1 1 2 0 275 272
1 1 2 0 269 275
1 1 2 0 272 275
1 1 2 0 287 278
1 1 2 0 284 278
1 1 2 0 281 278
1 1 2 0 278 281
1 1 2 0 287 281
1 1 2 0 284 281
1 1 2 0 278 284
1 1 2 0 287 284
1 1 2 0 281 284
1 1 2 0 278 287
1 1 2 0 284 287
1 1 2 0 281 287
1 1 2 0 281 86
1 1 2 0 158 86
1 1 2 0 122 86
1 1 2 0 110 89
1 1 2 0 143 89
1 1 2 0 161 89
1 1 2 0 209 89
1 1 2 0 287 92
1 1 2 0 272 92
1 1 2 0 245 92
1 1 2 0 263 95
1 1 2 0 248 95
1 1 2 0 149 95
1 1 2 0 137 95
1 1 2 0 188 95
1 1 2 0 131 95
1 1 2 0 275 98
1 1 2 0 197 98
1 1 2 0 221 98
1 1 2 0 140 98
1 1 2 0 200 101
1 1 2 0 251 101
1 1 2 0 116 104
1 1 2 0 170 104
1 1 2 0 203 104
1 1 2 0 278 107
1 1 2 0 269 107
1 1 2 0 239 107
1 1 2 0 194 107
1 1 2 0 206 107
1 1 2 0 119 107
1 1 2 0 143 110
1 1 2 0 161 110
1 1 2 0 209 110
1 1 2 0 89 110
1 1 2 0 284 113
1 1 2 0 230 113
1 1 2 0 146 113
1 1 2 0 128 113
1 1 2 0 170 116
1 1 2 0 203 116
1 1 2 0 104 116
1 1 2 0 107 119
1 1 2 0 278 119
1 1 2 0 269 119
1 1 2 0 239 119
1 1 2 0 194 119
1 1 2 0 206 119
1 1 2 0 86 122
1 1 2 0 281 122
1 1 2 0 158 122
1 1 2 0 164 125
1 1 2 0 254 125
1 1 2 0 227 125
1 1 2 0 215 125
1 1 2 0 113 128
1 1 2 0 284 128
1 1 2 0 230 128
1 1 2 0 146 128
1 1 2 0 95 131
1 1 2 0 263 131
1 1 2 0 248 131
1 1 2 0 149 131
1 1 2 0 137 131
1 1 2 0 188 131
1 1 2 0 173 134
1 1 2 0 260 134
1 1 2 0 218 134
1 1 2 0 95 137
1 1 2 0 263 137
1 1 2 0 248 137
1 1 2 0 149 137
1 1 2 0 188 137
1 1 2 0 131 137
1 1 2 0 98 140
1 1 2 0 275 140
1 1 2 0 197 140
1 1 2 0 221 140
1 1 2 0 110 143
1 1 2 0 161 143
1 1 2 0 209 143
1 1 2 0 89 143
1 1 2 0 113 146
1 1 2 0 284 146
1 1 2 0 230 146
1 1 2 0 128 146
1 1 2 0 95 149
1 1 2 0 263 149
1 1 2 0 248 149
1 1 2 0 137 149
1 1 2 0 188 149
1 1 2 0 131 149
1 1 2 0 167 152
1 1 2 0 266 152
1 1 2 0 176 152
1 1 2 0 179 155
1 1 2 0 236 155
1 1 2 0 191 155
1 1 2 0 224 155
1 1 2 0 86 158
1 1 2 0 281 158
1 1 2 0 122 158
1 1 2 0 110 161
1 1 2 0 143 161
1 1 2 0 209 161
1 1 2 0 89 161
1 1 2 0 254 164
1 1 2 0 227 164
1 1 2 0 215 164
1 1 2 0 125 164
1 1 2 0 266 167
1 1 2 0 176 167
1 1 2 0 152 167
1 1 2 0 116 170
1 1 2 0 203 170
1 1 2 0 104 170
1 1 2 0 260 173
1 1 2 0 218 173
1 1 2 0 134 173
1 1 2 0 167 176
1 1 2 0 266 176
1 1 2 0 152 176
1 1 2 0 236 179
1 1 2 0 191 179
1 1 2 0 224 179
1 1 2 0 155 179
1 1 2 0 212 182
1 1 2 0 242 182
1 1 2 0 257 185
1 1 2 0 233 185
1 1 2 0 95 188
1 1 2 0 263 188
1 1 2 0 248 188
1 1 2 0 149 188
1 1 2 0 137 188
1 1 2 0 131 188
1 1 2 0 179 191
1 1 2 0 236 191
1 1 2 0 224 191
1 1 2 0 155 191
1 1 2 0 107 194
1 1 2 0 278 194
1 1 2 0 269 194
1 1 2 0 239 194
1 1 2 0 206 194
1 1 2 0 119 194
1 1 2 0 98 197
1 1 2 0 275 197
1 1 2 0 221 197
1 1 2 0 140 197
1 1 2 0 251 200
1 1 2 0 101 200
1 1 2 0 116 203
1 1 2 0 170 203
1 1 2 0 104 203
1 1 2 0 107 206
1 1 2 0 278 206
1 1 2 0 269 206
1 1 2 0 239 206
1 1 2 0 194 206
1 1 2 0 119 206
1 1 2 0 110 209
1 1 2 0 143 209
1 1 2 0 161 209
1 1 2 0 89 209
1 1 2 0 242 212
1 1 2 0 182 212
1 1 2 0 164 215
1 1 2 0 254 215
1 1 2 0 227 215
1 1 2 0 125 215
1 1 2 0 173 218
1 1 2 0 260 218
1 1 2 0 134 218
1 1 2 0 98 221
1 1 2 0 275 221
1 1 2 0 197 221
1 1 2 0 140 221
1 1 2 0 179 224
1 1 2 0 236 224
1 1 2 0 191 224
1 1 2 0 155 224
1 1 2 0 164 227
1 1 2 0 254 227
1 1 2 0 215 227
1 1 2 0 125 227
1 1 2 0 113 230
1 1 2 0 284 230
1 1 2 0 146 230
1 1 2 0 128 230
1 1 2 0 185 233
1 1 2 0 257 233
1 1 2 0 179 236
1 1 2 0 191 236
1 1 2 0 224 236
1 1 2 0 155 236
1 1 2 0 107 239
1 1 2 0 278 239
1 1 2 0 269 239
1 1 2 0 194 239
1 1 2 0 206 239
1 1 2 0 119 239
1 1 2 0 212 242
1 1 2 0 182 242
1 1 2 0 92 245
1 1 2 0 287 245
1 1 2 0 272 245
1 1 2 0 95 248
1 1 2 0 263 248
1 1 2 0 149 248
1 1 2 0 137 248
1 1 2 0 188 248
1 1 2 0 131 248
1 1 2 0 200 251
1 1 2 0 101 251
1 1 2 0 164 254
1 1 2 0 227 254
1 1 2 0 215 254
1 1 2 0 125 254
1 1 2 0 185 257
1 1 2 0 233 257
1 1 2 0 173 260
1 1 2 0 218 260
1 1 2 0 134 260
1 1 2 0 95 263
1 1 2 0 248 263
1 1 2 0 149 263
1 1 2 0 137 263
1 1 2 0 188 263
1 1 2 0 131 263
1 1 2 0 167 266
1 1 2 0 176 266
1 1 2 0 152 266
1 1 2 0 107 269
1 1 2 0 278 269
1 1 2 0 239 269
1 1 2 0 194 269
1 1 2 0 206 269
1 1 2 0 119 269
1 1 2 0 92 272
1 1 2 0 287 272
1 1 2 0 245 272
1 1 2 0 98 275
1 1 2 0 197 275
1 1 2 0 221 275
1 1 2 0 140 275
1 1 2 0 107 278
1 1 2 0 269 278
1 1 2 0 239 278
1 1 2 0 194 278
1 1 2 0 206 278
1 1 2 0 119 278
1 1 2 0 86 281
1 1 2 0 158 281
1 1 2 0 122 281
1 1 2 0 113 284
1 1 2 0 230 284
1 1 2 0 146 284
1 1 2 0 128 284
1 1 2 0 92 287
1 1 2 0 272 287
1 1 2 0 245 287
1 1 1 1 293
1 1 1 1 293
1 1 1 1 293
1 1 1 1 293
1 1 1 1 293
1 1 1 1 293
1 1 1 1 293
1 1 1 1 298
1 1 1 1 298
1 1 1 1 298
1 1 1 1 298
1 1 1 1 290
1 1 1 1 290
1 1 1 1 290
1 1 1 1 290
1 1 1 1 290
1 1 1 1 302
1 1 1 1 302
1 1 1 1 302
1 1 1 1 299
1 1 1 1 299
1 1 1 1 299
1 1 1 1 299
1 1 1 1 299
1 1 1 1 291
1 1 1 1 291
1 1 1 1 291
1 1 1 1 291
1 1 1 1 291
1 1 1 1 304
1 1 1 1 304
1 1 1 1 304
1 1 1 1 303
1 1 1 1 303
1 1 1 1 303
1 1 1 1 303
1 1 1 1 294
1 1 1 1 294
1 1 1 1 294
1 1 1 1 294
1 1 1 1 295
1 1 1 1 295
1 1 1 1 295
1 1 1 1 295
1 1 1 1 295
1 1 1 1 295
1 1 1 1 295
1 1 1 1 300
1 1 1 1 300
1 1 1 1 300
1 1 1 1 300
1 1 1 1 296
1 1 1 1 296
1 1 1 1 296
1 1 1 1 296
1 1 1 1 296
1 1 1 1 301
1 1 1 1 301
1 1 1 1 301
1 1 1 1 301
1 1 1 1 301
1 1 1 1 297
1 1 1 1 297
1 1 1 1 297
1 1 1 1 292
1 1 1 1 292
1 1 1 1 292
1 1 1 1 292
0
71 vertex(0)
72 vertex(1)
73 vertex(2)
74 vertex(3)
75 vertex(4)
76 vertex(5)
77 vertex(6)
78 vertex(7)
79 vertex(8)
80 vertex(9)
81 vertex(10)
82 vertex(11)
83 vertex(12)
84 vertex(13)
85 vertex(14)
3 arc(0,1)
4 arc(0,2)
5 arc(0,8)
6 arc(0,9)
7 arc(0,11)
8 arc(0,13)
9 arc(0,14)
10 arc(1,0)
11 arc(1,2)
12 arc(1,5)
13 arc(1,14)
14 arc(2,0)
15 arc(2,1)
16 arc(2,4)
17 arc(2,5)
18 arc(2,9)
19 arc(3,7)
20 arc(3,9)
21 arc(3,11)
22 arc(4,2)
23 arc(4,5)
24 arc(4,9)
25 arc(4,10)
26 arc(4,12)
27 arc(5,1)
28 arc(5,2)
29 arc(5,4)
30 arc(5,10)
31 arc(5,14)
32 arc(6,7)
33 arc(6,10)
34 arc(6,12)
35 arc(7,3)
36 arc(7,6)
37 arc(7,9)
38 arc(7,12)
39 arc(8,0)
40 arc(8,11)
41 arc(8,13)
42 arc(8,14)
43 arc(9,0)
44 arc(9,2)
45 arc(9,3)
46 arc(9,4)
47 arc(9,7)
48 arc(9,11)
49 arc(9,12)
50 arc(10,4)
51 arc(10,5)
52 arc(10,6)
53 arc(10,12)
54 arc(11,0)
55 arc(11,3)
56 arc(11,8)
57 arc(11,9)
58 arc(11,13)
59 arc(12,4)
60 arc(12,6)
61 arc(12,7)
62 arc(12,9)
63 arc(12,10)
64 arc(13,0)
65 arc(13,8)
66 arc(13,11)
67 arc(14,0)
68 arc(14,1)
69 arc(14,5)
70 arc(14,8)
290 reached(2)
291 reached(5)
292 reached(14)
293 reached(0)
294 reached(8)
295 reached(9)
296 reached(11)
297 reached(13)
298 reached(1)
299 reached(4)
300 reached(10)
301 reached(12)
302 reached(3)
303 reached(7)
304 reached(6)
87 out_hm(0,1)
90 out_hm(0,2)
93 out_hm(0,8)
96 out_hm(0,9)
99 out_hm(0,11)
102 out_hm(0,13)
105 out_hm(0,14)
108 out_hm(1,0)
111 out_hm(1,2)
114 out_hm(1,5)
117 out_hm(1,14)
120 out_hm(2,0)
123 out_hm(2,1)
126 out_hm(2,4)
129 out_hm(2,5)
132 out_hm(2,9)
135 out_hm(3,7)
138 out_hm(3,9)
141 out_hm(3,11)
144 out_hm(4,2)
147 out_hm(4,5)
150 out_hm(4,9)
153 out_hm(4,10)
156 out_hm(4,12)
159 out_hm(5,1)
162 out_hm(5,2)
165 out_hm(5,4)
168 out_hm(5,10)
171 out_hm(5,14)
174 out_hm(6,7)
177 out_hm(6,10)
180 out_hm(6,12)
183 out_hm(7,3)
186 out_hm(7,6)
189 out_hm(7,9)
192 out_hm(7,12)
195 out_hm(8,0)
198 out_hm(8,11)
201 out_hm(8,13)
204 out_hm(8,14)
207 out_hm(9,0)
210 out_hm(9,2)
213 out_hm(9,3)
216 out_hm(9,4)
219 out_hm(9,7)
222 out_hm(9,11)
225 out_hm(9,12)
228 out_hm(10,4)
231 out_hm(10,5)
234 out_hm(10,6)
237 out_hm(10,12)
240 out_hm(11,0)
243 out_hm(11,3)
246 out_hm(11,8)
249 out_hm(11,9)
252 out_hm(11,13)
255 out_hm(12,4)
258 out_hm(12,6)
261 out_hm(12,7)
264 out_hm(12,9)
267 out_hm(12,10)
270 out_hm(13,0)
273 out_hm(13,8)
276 out_hm(13,11)
279 out_hm(14,0)
282 out_hm(14,1)
285 out_hm(14,5)
288 out_hm(14,8)
86 in_hm(0,1)
89 in_hm(0,2)
92 in_hm(0,8)
95 in_hm(0,9)
98 in_hm(0,11)
101 in_hm(0,13)
104 in_hm(0,14)
107 in_hm(1,0)
110 in_hm(1,2)
113 in_hm(1,5)
116 in_hm(1,14)
119 in_hm(2,0)
122 in_hm(2,1)
125 in_hm(2,4)
128 in_hm(2,5)
131 in_hm(2,9)
134 in_hm(3,7)
137 in_hm(3,9)
140 in_hm(3,11)
143 in_hm(4,2)
146 in_hm(4,5)
149 in_hm(4,9)
152 in_hm(4,10)
155 in_hm(4,12)
158 in_hm(5,1)
161 in_hm(5,2)
164 in_hm(5,4)
167 in_hm(5,10)
170 in_hm(5,14)
173 in_hm(6,7)
176 in_hm(6,10)
179 in_hm(6,12)
182 in_hm(7,3)
185 in_hm(7,6)
188 in_hm(7,9)
191 in_hm(7,12)
194 in_hm(8,0)
197 in_hm(8,11)
200 in_hm(8,13)
203 in_hm(8,14)
206 in_hm(9,0)
209 in_hm(9,2)
212 in_hm(9,3)
215 in_hm(9,4)
218 in_hm(9,7)
221 in_hm(9,11)
224 in_hm(9,12)
227 in_hm(10,4)
230 in_hm(10,5)
233 in_hm(10,6)
236 in_hm(10,12)
239 in_hm(11,0)
242 in_hm(11,3)
245 in_hm(11,8)
248 in_hm(11,9)
251 in_hm(11,13)
254 in_hm(12,4)
257 in_hm(12,6)
260 in_hm(12,7)
263 in_hm(12,9)
266 in_hm(12,10)
269 in_hm(13,0)
272 in_hm(13,8)
275 in_hm(13,11)
278 in_hm(14,0)
281 in_hm(14,1)
284 in_hm(14,5)
287 in_hm(14,8)
2 start(1)
0
B+
0
B-
1
0
1
