1 104 1 1 105
1 105 1 1 104
1 114 1 1 115
1 115 1 1 114
1 186 1 1 187
1 187 1 1 186
1 286 2 1 285 284
1 1 1 1 289
1 236 1 1 237
2 266 8 0 6 118 116 114 112 110 108 106 104
1 164 1 1 165
1 227 1 1 226
1 1 1 1 249
1 112 1 1 113
2 257 7 0 6 234 202 184 166 148 132 114
1 268 2 1 267 266
1 182 1 1 183
1 127 1 1 126
1 122 1 1 123
1 1 1 1 268
1 166 1 1 167
1 233 1 1 232
1 207 1 1 206
1 118 1 1 119
1 262 2 1 261 260
2 287 8 0 4 238 236 234 232 230 228 226 224
1 218 1 1 219
2 247 6 0 4 214 196 178 160 126 108
1 256 2 1 255 254
1 1 1 1 259
1 108 1 1 109
1 126 1 1 127
1 1 1 1 262
1 210 1 1 211
1 200 1 1 201
1 117 1 1 116
1 195 1 1 194
1 136 1 1 137
1 196 1 1 197
1 1 1 1 243
1 106 1 1 107
2 255 6 0 6 218 200 182 164 130 112
1 1 2 0 106 105
1 173 1 1 172
1 249 2 1 248 247
1 215 1 1 214
1 132 1 1 133
2 267 8 0 7 118 116 114 112 110 108 106 104
1 265 2 1 264 263
1 140 1 1 141
2 284 8 0 6 222 220 218 216 214 212 210 208
2 263 8 0 3 238 222 206 188 170 152 136 118
1 216 1 1 217
1 1 1 1 256
2 261 8 0 6 236 220 204 186 168 150 134 116
1 160 1 1 161
1 130 1 1 131
1 205 1 1 204
1 206 1 1 207
1 194 1 1 195
2 254 6 0 5 218 200 182 164 130 112
1 226 1 1 227
2 241 8 0 4 226 210 192 174 156 140 122 106
1 185 1 1 184
2 281 9 0 6 206 204 202 200 198 196 194 192 190
1 202 1 1 203
1 243 2 1 242 241
1 1 2 0 184 183
1 212 1 1 213
1 119 1 1 118
1 150 1 1 151
1 170 1 1 171
1 234 1 1 235
1 208 1 1 209
2 260 8 0 5 236 220 204 186 168 150 134 116
1 1 1 1 265
1 134 1 1 135
1 183 1 1 182
1 168 1 1 169
1 148 1 1 149
1 289 2 1 288 287
1 116 1 1 117
1 1 2 0 206 205
1 259 2 1 258 257
1 123 1 1 122
1 230 1 1 231
1 190 1 1 191
1 184 1 1 185
1 214 1 1 215
1 113 1 1 112
1 191 1 1 190
1 232 1 1 233
1 107 1 1 106
1 172 1 1 173
1 204 1 1 205
0
0
B+
0
B-
1
0
1
